932
932
932
932
932
932
932
932
933
933
936
937
938
935
936
937
939
941
938
937
930
933
941
939
936
935
937
937
939
940
938
936
932
937
937
941
939
937
937
937
941
942
938
937
934
938
943
942
941
939
936
938
941
941
941
937
937
938
941
943
942
936
936
939
942
942
941
939
937
938
940
944
942
939
938
938
942
943
943
941
938
937
939
945
944
943
941
942
943
945
943
941
941
941
945
945
946
944
943
944
944
947
947
943
944
947
950
955
953
953
953
956
960
965
963
960
960
962
968
969
967
964
963
963
966
969
967
963
959
960
957
957
952
951
951
952
954
953
950
953
950
953
953
953
954
953
952
952
954
957
958
957
955
958
962
962
963
957
949
944
941
940
946
954
984
1042
1122
1216
1302
1375
1422
1442
1434
1368
1240
1112
984
896
905
926
932
925
921
924
931
936
938
949
955
963
966
974
974
970
967
968
973
977
973
972
973
974
975
978
978
974
972
974
979
981
980
976
977
977
982
985
984
981
981
982
985
985
982
980
981
985
989
991
987
986
985
985
989
990
992
990
986
989
994
997
996
997
995
998
1001
1003
1004
1004
1001
1005
1012
1014
1013
1014
1014
1018
1022
1024
1027
1023
1029
1031
1036
1041
1045
1044
1046
1050
1058
1065
1067
1071
1074
1081
1085
1093
1096
1100
1103
1111
1116
1123
1127
1131
1132
1140
1149
1155
1158
1162
1164
1170
1174
1181
1185
1184
1183
1185
1186
1182
1176
1168
1159
1150
1140
1134
1120
1108
1091
1081
1070
1058
1045
1032
1016
1009
1004
997
988
978
972
969
968
970
965
959
953
954
954
954
950
946
945
946
948
947
948
942
942
941
942
946
945
942
939
941
944
947
945
942
940
943
944
946
944
943
939
938
945
945
944
939
940
939
944
945
945
943
940
940
940
943
942
942
938
940
943
944
940
939
937
938
940
944
942
936
936
938
940
938
936
933
933
933
937
939
936
933
931
933
935
938
933
930
930
931
932
934
932
933
931
932
932
934
933
930
928
928
932
934
934
931
930
930
933
936
934
932
930
932
933
932
934
931
928
931
935
935
933
929
931
930
935
934
933
931
929
934
933
937
933
929
930
932
932
934
936
930
934
933
937
938
938
935
935
933
938
940
939
934
935
935
939
939
935
938
932
937
936
938
937
935
935
937
937
938
939
934
935
938
939
940
939
937
937
937
940
943
939
937
936
939
942
944
944
941
939
940
943
944
941
941
940
940
943
946
943
941
943
943
948
952
953
952
952
957
957
959
959
960
961
962
963
963
963
959
955
958
962
961
958
954
949
950
949
950
951
949
945
947
950
954
951
949
947
952
951
952
954
951
951
953
955
958
959
957
957
959
958
959
953
945
937
933
938
952
976
1024
1096
1194
1292
1370
1424
1446
1427
1365
1237
1109
981
892
903
925
934
931
924
925
928
936
948
961
967
970
971
972
976
976
977
970
973
973
976
979
980
977
977
978
983
982
984
981
978
981
984
984
984
982
986
986
987
990
992
989
988
993
995
996
996
991
994
991
996
998
999
996
995
997
998
1002
1002
1003
1004
1004
1010
1014
1015
1013
1012
1017
1020
1025
1026
1025
1025
1027
1035
1035
1039
1040
1042
1048
1051
1059
1061
1062
1062
1066
1075
1079
1086
1087
1092
1098
1107
1114
1119
1125
1129
1134
1145
1152
1157
1160
1162
1168
1178
1183
1185
1189
1192
1195
1200
1203
1196
1191
1188
1182
1176
1169
1157
1143
1127
1115
1103
1092
1080
1065
1049
1041
1034
1025
1011
1003
997
993
990
989
982
976
973
973
973
971
968
964
963
966
967
966
963
963
957
960
963
964
966
961
961
961
963
965
963
962
961
962
965
966
964
963
963
962
966
969
966
963
962
966
970
969
967
965
963
966
968
969
968
963
963
966
964
968
967
965
964
966
966
970
965
962
960
962
965
969
966
964
959
962
963
965
965
962
961
961
965
966
965
962
960
959
964
964
964
962
960
963
963
965
965
963
962
962
963
964
965
963
963
964
968
968
967
965
965
964
969
965
968
964
963
965
969
968
971
967
963
966
967
972
969
968
967
969
971
970
970
965
966
965
971
973
973
967
967
967
972
973
973
970
967
970
974
972
973
970
967
971
974
976
975
970
971
973
976
978
977
973
970
973
974
980
977
971
974
972
976
979
979
977
976
977
978
979
979
976
975
977
980
981
980
980
979
980
985
989
989
988
988
989
990
994
994
996
995
994
998
998
997
997
994
994
993
993
990
985
981
982
987
988
985
982
980
982
988
990
987
983
983
984
988
989
988
987
988
992
996
995
992
979
972
965
966
972
991
1030
1102
1199
1301
1383
1434
1446
1406
1302
1174
1046
918
926
950
958
960
956
956
958
963
976
992
1000
1004
1003
1000
1003
1005
1009
1007
1004
1004
1003
1010
1011
1012
1008
1005
1013
1016
1016
1013
1012
1012
1016
1018
1018
1016
1011
1016
1019
1019
1021
1020
1019
1022
1024
1028
1025
1024
1025
1027
1030
1033
1036
1031
1028
1031
1035
1036
1034
1035
1036
1039
1042
1044
1045
1045
1044
1047
1054
1056
1057
1058
1058
1060
1066
1070
1075
1074
1074
1078
1084
1092
1093
1094
1094
1101
1106
1114
1116
1119
1123
1130
1137
1142
1147
1149
1153
1159
1165
1171
1175
1177
1184
1186
1193
1200
1200
1203
1204
1208
1212
1212
1210
1203
1194
1188
1183
1175
1163
1149
1134
1126
1114
1104
1089
1078
1065
1052
1047
1042
1030
1021
1015
1010
1007
1005
999
992
989
987
986
985
983
978
974
974
978
977
976
974
973
971
975
977
976
971
970
971
975
976
976
973
971
972
976
976
973
969
972
970
973
973
971
972
972
972
974
977
975
971
971
973
973
974
974
971
972
971
973
974
974
971
971
970
972
972
972
970
966
969
970
971
969
966
964
963
965
967
967
962
962
962
964
964
965
962
960
960
963
963
961
956
956
954
958
959
956
952
952
955
957
957
958
955
954
954
955
955
954
954
953
955
957
960
956
953
951
950
953
954
955
954
952
947
952
956
951
950
952
951
951
955
950
950
948
949
951
953
953
948
948
951
952
953
950
950
948
949
951
952
951
945
946
948
947
951
950
948
945
947
949
951
950
950
947
949
956
957
960
959
957
957
959
966
966
965
961
960
962
962
961
958
954
952
952
952
945
941
936
939
940
944
943
937
938
939
944
944
945
940
939
941
944
944
944
942
943
946
947
948
942
937
926
923
922
922
930
953
1004
1083
1178
1272
1353
1398
1414
1394
1322
1194
1066
938
861
884
908
909
899
896
900
909
919
931
939
945
944
945
946
947
947
945
943
942
945
948
948
944
944
945
947
951
949
943
944
947
946
949
948
949
946
949
952
951
953
947
951
951
952
957
953
954
951
955
957
957
955
955
954
954
958
962
962
958
958
961
965
966
968
966
966
968
971
976
977
975
976
979
985
986
990
989
988
993
997
1004
1004
1006
1008
1012
1021
1026
1029
1030
1033
1042
1047
1055
1060
1060
1062
1070
1077
1084
1089
1091
1094
1102
1113
1116
1118
1122
1123
1130
1136
1144
1142
1143
1141
1143
1142
1140
1130
1121
1109
1100
1091
1080
1063
1048
1034
1022
1010
999
988
972
961
951
947
944
937
924
919
917
916
914
910
905
902
898
900
899
898
895
892
891
894
896
892
890
885
888
890
891
888
884
885
883
888
888
886
883
885
887
889
891
892
889
887
887
891
891
888
886
884
886
888
888
888
888
886
885
888
891
890
887
885
882
884
886
888
883
880
880
883
887
884
881
881
881
883
883
883
880
878
877
880
881
879
878
877
876
880
880
879
874
873
874
878
878
878
870
873
872
875
874
876
872
869
873
877
879
878
874
872
874
878
879
878
874
871
873
876
879
877
872
872
876
876
877
874
873
873
873
876
875
874
873
873
873
874
876
873
876
873
872
876
879
876
874
875
874
877
877
876
872
872
876
879
879
880
876
875
875
880
881
877
875
875
876
879
879
878
876
877
878
881
882
881
879
875
877
881
882
882
880
881
881
885
890
887
886
890
892
895
895
895
896
897
894
898
899
899
896
894
895
892
892
888
882
881
882
884
887
884
884
881
885
886
886
884
884
882
884
889
892
890
888
889
892
895
894
890
883
875
869
870
875
884
911
967
1058
1162
1264
1342
1384
1384
1325
1197
1069
941
814
832
856
864
860
857
856
862
870
883
893
896
897
895
899
900
904
900
900
900
903
907
907
905
903
904
905
911
908
908
907
906
910
914
915
915
911
912
913
919
917
919
915
914
917
921
923
924
924
922
926
929
932
933
932
932
936
940
944
943
945
946
949
955
958
959
961
964
968
970
980
984
987
989
996
1006
1011
1013
1017
1022
1027
1039
1047
1050
1053
1059
1067
1076
1081
1086
1087
1090
1100
1106
1114
1117
1120
1121
1126
1130
1132
1127
1120
1116
1110
1103
1093
1080
1065
1052
1039
1029
1016
1002
987
975
963
956
947
940
929
921
915
914
912
907
903
898
896
897
897
894
891
888
887
889
891
890
887
882
885
888
889
888
883
881
883
888
887
886
886
882
883
887
889
888
886
883
885
892
891
889
888
886
888
893
895
891
890
884
890
893
895
894
890
889
889
892
895
892
891
888
889
892
895
893
893
890
891
895
895
895
892
887
890
894
896
894
889
891
892
893
894
893
890
887
888
892
893
892
890
890
891
891
891
892
890
887
890
894
896
892
891
889
892
893
895
894
890
892
894
896
894
894
892
889
893
897
898
897
893
891
892
897
898
897
893
895
899
899
902
898
896
895
897
898
902
902
900
898
900
900
901
903
900
897
900
903
906
904
897
899
902
904
905
903
903
902
904
906
905
904
901
901
902
908
911
908
904
905
907
908
910
910
905
907
908
910
910
909
909
905
907
912
913
910
908
908
909
909
913
912
908
910
910
913
916
915
912
912
916
919
922
921
919
922
927
930
933
929
928
929
932
936
935
933
928
927
930
931
935
927
924
922
921
924
921
920
918
918
920
923
926
921
922
919
921
926
925
925
923
921
927
928
932
931
929
927
930
931
925
920
910
906
907
915
930
959
1008
1083
1177
1276
1355
1412
1431
1418
1356
1238
1110
982
872
869
891
902
903
898
896
901
902
914
924
936
940
939
942
944
945
944
942
943
944
947
951
948
947
947
948
952
953
952
948
950
952
956
955
956
954
952
956
959
962
960
956
957
958
962
962
962
959
958
961
967
966
966
965
963
967
971
973
974
970
968
971
976
978
978
977
974
979
984
985
984
983
982
986
991
995
997
993
996
1000
1006
1009
1009
1008
1011
1016
1021
1026
1027
1029
1032
1038
1044
1051
1054
1058
1060
1068
1077
1084
1088
1090
1091
1097
1106
1115
1118
1123
1127
1133
1143
1151
1154
1155
1156
1164
1169
1175
1176
1171
1166
1167
1166
1158
1148
1139
1128
1117
1106
1099
1086
1072
1055
1042
1037
1026
1012
1000
989
982
977
970
966
956
952
949
948
946
940
939
935
935
936
937
934
929
924
927
929
928
928
925
924
927
929
929
928
925
923
924
929
930
927
924
926
927
929
928
930
927
927
928
931
932
929
929
926
931
931
932
932
929
927
929
933
934
932
931
927
930
932
933
933
929
929
927
931
934
932
928
925
928
931
933
927
926
925
928
930
930
930
925
923
923
928
929
930
927
923
926
927
928
928
925
922
924
926
928
926
926
925
929
929
930
928
925
924
926
930
928
931
928
926
927
930
930
928
927
927
928
931
933
933
929
928
929
933
934
929
929
926
928
932
934
932
928
926
930
935
936
935
931
930
930
932
936
936
934
931
931
936
936
932
932
931
933
938
938
937
933
930
937
939
942
941
935
934
935
938
941
941
937
934
937
940
942
943
939
938
938
940
943
943
941
941
941
942
947
946
942
939
942
943
943
944
939
939
943
944
943
945
944
944
945
951
953
953
950
950
956
960
961
959
955
953
958
960
968
965
960
957
960
964
965
961
958
954
955
956
956
953
949
947
949
950
953
952
949
950
950
953
952
953
951
948
949
954
954
958
955
955
956
961
960
962
957
953
950
945
943
937
934
939
961
1006
1081
1174
1269
1353
1414
1439
1427
1358
1233
1105
977
901
901
918
924
922
921
922
924
929
930
936
946
958
968
972
967
969
968
970
975
974
973
972
974
978
980
976
978
975
978
982
984
984
981
981
982
987
988
987
983
983
986
990
992
991
988
988
991
993
997
994
994
993
993
995
998
995
994
995
1000
1003
1005
1002
1004
1001
1006
1009
1012
1012
1012
1010
1017
1022
1023
1023
1026
1026
1029
1033
1035
1036
1037
1038
1044
1051
1055
1058
1056
1063
1067
1076
1081
1084
1086
1086
1097
1106
1113
1115
1119
1125
1132
1140
1147
1150
1153
1157
1165
1174
1178
1183
1184
1187
1194
1200
1202
1203
1200
1197
1195
1195
1191
1180
1168
1158
1146
1140
1127
1114
1095
1081
1069
1059
1047
1035
1023
1012
1004
1003
997
990
983
976
973
975
974
971
966
964
964
965
966
963
959
957
959
961
961
961
958
957
954
960
960
961
957
956
955
959
961
961
959
959
959
961
962
963
959
959
960
961
963
963
959
960
962
964
966
963
961
960
963
964
967
966
962
962
962
964
967
965
962
963
960
964
965
962
956
958
959
961
964
963
962
957
960
962
962
962
957
957
955
959
963
960
956
956
956
959
959
957
958
956
958
958
960
960
956
957
958
961
962
959
956
953
955
957
959
959
959
956
958
963
963
959
955
955
956
960
959
957
955
958
956
958
961
960
959
960
961
961
964
963
960
961
962
964
962
963
959
958
961
962
966
965
963
960
963
965
965
966
963
966
970
973
975
977
973
976
975
979
982
981
979
979
983
990
987
985
981
978
981
982
980
975
971
967
969
969
970
968
963
961
965
967
969
968
966
962
966
969
970
969
967
967
968
970
974
974
974
972
974
975
970
962
953
945
947
956
978
1020
1091
1192
1302
1394
1454
1471
1428
1320
1192
1064
936
908
931
943
940
940
940
944
948
957
970
979
982
979
976
975
981
983
985
984
981
983
986
988
989
989
984
984
990
991
992
990
988
990
989
995
997
995
993
994
994
995
1000
998
997
997
1000
1003
1003
1004
1002
1000
1004
1010
1011
1014
1012
1010
1016
1018
1020
1022
1023
1022
1024
1030
1034
1035
1037
1038
1043
1048
1053
1054
1058
1061
1066
1073
1078
1079
1084
1085
1092
1101
1110
1112
1119
1124
1132
1141
1147
1150
1154
1158
1166
1174
1183
1187
1191
1194
1200
1208
1210
1211
1207
1205
1204
1201
1195
1184
1170
1156
1145
1132
1120
1108
1093
1075
1063
1055
1044
1032
1022
1009
1004
1001
995
989
979
977
976
975
975
970
965
962
960
962
963
957
956
956
956
956
958
958
954
954
956
955
959
958
954
954
953
954
957
957
953
951
955
957
960
956
956
953
955
959
958
954
957
957
957
958
958
957
956
951
952
958
960
958
955
953
956
955
958
958
953
953
950
955
956
955
951
951
953
955
953
950
947
945
948
951
952
947
946
944
948
951
949
947
944
943
942
947
950
949
944
941
943
944
948
947
943
942
941
947
946
946
943
942
942
947
946
945
941
941
940
945
943
943
939
939
942
943
942
941
941
937
936
941
942
942
935
936
936
939
943
941
939
939
938
941
944
943
940
938
939
943
943
941
937
934
938
939
939
939
935
935
936
938
941
938
935
934
936
940
942
936
931
935
937
941
939
940
937
932
937
939
940
939
936
935
934
935
939
935
935
933
933
938
935
935
933
935
939
943
944
945
943
943
943
947
948
952
949
947
948
950
948
950
947
941
942
943
942
937
932
932
932
936
936
933
932
932
933
937
938
937
932
933
932
937
939
939
934
936
938
942
940
935
925
917
912
916
927
961
1022
1111
1226
1326
1392
1426
1420
1367
1258
1130
1002
874
870
890
900
906
901
901
902
909
920
931
936
940
936
933
937
941
939
939
937
935
939
940
943
941
939
940
941
945
942
943
943
940
942
947
946
944
942
942
943
949
950
947
948
945
948
951
952
949
947
947
948
954
955
954
954
955
958
959
961
960
959
959
963
965
965
968
967
969
970
976
978
978
977
975
981
989
991
993
991
994
1001
1005
1008
1011
1012
1013
1022
1031
1034
1038
1041
1047
1052
1061
1068
1075
1078
1080
1087
1097
1104
1109
1111
1116
1125
1130
1135
1139
1142
1146
1151
1153
1154
1148
1140
1137
1130
1122
1112
1098
1081
1067
1056
1045
1034
1017
1006
990
981
972
967
958
947
941
938
934
934
929
925
920
923
923
921
919
916
913
913
915
914
914
911
910
913
912
914
914
908
908
909
913
910
912
908
910
911
912
912
910
910
909
910
913
914
914
909
908
912
914
917
916
910
908
912
916
917
914
913
912
912
913
915
916
914
912
913
912
913
914
910
908
911
913
915
912
907
909
910
914
913
910
908
905
908
912
911
910
906
904
909
911
910
908
905
904
906
909
909
909
906
906
908
907
910
909
906
907
908
910
909
913
909
908
909
911
913
911
910
908
908
911
914
913
909
907
907
910
911
908
907
908
911
911
913
911
909
910
912
913
914
910
910
911
908
914
914
914
911
908
911
915
917
915
913
910
913
917
918
915
912
913
913
919
919
914
914
915
917
921
921
920
916
915
915
921
923
921
917
916
918
922
923
919
920
920
920
923
922
924
921
923
923
923
923
923
920
919
924
929
930
928
929
929
932
937
938
938
937
937
934
940
944
944
